XDAC V1.4 Datafile V1
"Fe_pyrite.000" created on 11/3/2011 at 1:37:07 PM on X-23A2
Diffraction element= Si (311).  Ring energy= 2.80 GeV
E0= 7112.00
NUM_REGIONS= 4
SRB= -200 -20 30 60 15k
SRSS= 10 0.25 0.05k 0.05k
SPP= 0.5 0.5 0.5 0.125k
Settling time= 0.10


Offsets= 0.00 37.25 86.25 0.00
Gains= 8.00 8.00 9.00 1.00
FeS2 on tape


--------------------------------------------------------------------------------
        Energy            I0            It            Ir       IntTime
    6912.00137     4869.0000     3031.3750     6019.8750        0.5000
    6921.99811     4862.0000     3039.3750     6055.8750        0.5000
    6931.99952     4884.0000     3066.3750     6128.8750        0.5000
    6942.00100     4913.0000     3099.3750     6213.8750        0.5000
    6951.99793     4910.0000     3111.3750     6252.8750        0.5000
    6961.99916     4903.0000     3120.3750     6286.8750        0.5000
    6972.00005     4889.0000     3126.3750     6313.8750        0.5000
    6982.00050     4892.0000     3143.3750     6365.8750        0.5000
    6992.00035     4891.0000     3157.3750     6413.8750        0.5000
    7001.99948     4894.0000     3174.3750     6462.8750        0.5000
    7011.99777     4891.0000     3186.3750     6497.8750        0.5000
    7021.99962     4860.0000     3180.3750     6496.8750        0.5000
    7032.00039     4878.0000     3206.3750     6554.8750        0.5000
    7041.99992     4863.0000     3208.3750     6571.8750        0.5000
    7051.99811     4856.0000     3216.3750     6599.8750        0.5000
    7061.99940     4876.0000     3243.3750     6680.8750        0.5000
    7071.99909     4901.0000     3275.3750     6775.8750        0.5000
    7082.00166     4906.0000     3291.3750     6826.8750        0.5000
    7091.99780     4899.0000     3299.3750     6847.8750        0.5000
    7092.25090     4892.0000     3294.3750     6838.8750        0.5000
    7092.49942     4902.0000     3301.3750     6857.8750        0.5000
    7092.74794     4896.0000     3298.3750     6851.8750        0.5000
    7093.00108     4900.0000     3301.3750     6852.8750        0.5000
    7093.24962     4903.0000     3302.3750     6857.8750        0.5000
    7093.49818     4898.0000     3300.3750     6852.8750        0.5000
    7093.75135     4897.0000     3300.3750     6851.8750        0.5000
    7093.99992     4894.0000     3297.3750     6847.8750        0.5000
    7094.24851     4888.0000     3295.3750     6842.8750        0.5000
    7094.50171     4890.0000     3295.3750     6842.8750        0.5000
    7094.75031     4897.0000     3301.3750     6854.8750        0.5000
    7094.99893     4888.0000     3296.3750     6844.8750        0.5000
    7095.25216     4900.0000     3305.3750     6864.8750        0.5000
    7095.50080     4904.0000     3307.3750     6869.8750        0.5000
    7095.74944     4897.0000     3302.3750     6860.8750        0.5000
    7095.99810     4894.0000     3300.3750     6849.8750        0.5000
    7096.25137     4894.0000     3300.3750     6853.8750        0.5000
    7096.50005     4891.0000     3297.3750     6849.8750        0.5000
    7096.74874     4892.0000     3299.3750     6851.8750        0.5000
    7097.00204     4906.0000     3310.3750     6872.8750        0.5000
    7097.25075     4899.0000     3305.3750     6865.8750        0.5000
    7097.49947     4900.0000     3306.3750     6864.8750        0.5000
    7097.74820     4891.0000     3300.3750     6850.8750        0.5000
    7098.00154     4893.0000     3301.3750     6853.8750        0.5000
    7098.25029     4888.0000     3299.3750     6846.8750        0.5000
    7098.49905     4912.0000     3315.3750     6881.8750        0.5000
    7098.74782     4903.0000     3309.3750     6868.8750        0.5000
    7099.00121     4891.0000     3303.3750     6854.8750        0.5000
    7099.25000     4899.0000     3308.3750     6864.8750        0.5000
    7099.49880     4891.0000     3302.3750     6853.8750        0.5000
    7099.75221     4894.0000     3305.3750     6860.8750        0.5000
    7100.00103     4892.0000     3303.3750     6852.8750        0.5000
    7100.24986     4894.0000     3305.3750     6855.8750        0.5000
    7100.49871     4883.0000     3297.3750     6843.8750        0.5000
    7100.75216     4893.0000     3306.3750     6855.8750        0.5000
    7101.00103     4882.0000     3297.3750     6836.8750        0.5000
    7101.24990     4887.0000     3301.3750     6848.8750        0.5000
    7101.49878     4889.0000     3302.3750     6851.8750        0.5000
    7101.75228     4892.0000     3304.3750     6852.8750        0.5000
    7102.00118     4891.0000     3304.3750     6852.8750        0.5000
    7102.25009     4892.0000     3306.3750     6854.8750        0.5000
    7102.49901     4885.0000     3303.3750     6847.8750        0.5000
    7102.74795     4900.0000     3311.3750     6865.8750        0.5000
    7103.00150     4895.0000     3309.3750     6856.8750        0.5000
    7103.25045     4886.0000     3302.3750     6840.8750        0.5000
    7103.49941     4896.0000     3310.3750     6854.8750        0.5000
    7103.74839     4886.0000     3303.3750     6838.8750        0.5000
    7104.00198     4891.0000     3307.3750     6847.8750        0.5000
    7104.25098     4876.0000     3297.3750     6824.8750        0.5000
    7104.49998     4880.0000     3299.3750     6830.8750        0.5000
    7104.74899     4901.0000     3313.3750     6855.8750        0.5000
    7104.99802     4888.0000     3305.3750     6835.8750        0.5000
    7105.25166     4896.0000     3310.3750     6843.8750        0.5000
    7105.50071     4890.0000     3307.3750     6836.8750        0.5000
    7105.74976     4889.0000     3305.3750     6827.8750        0.5000
    7105.99883     4888.0000     3305.3750     6825.8750        0.5000
    7106.24790     4891.0000     3308.3750     6832.8750        0.5000
    7106.50160     4875.0000     3297.3750     6803.8750        0.5000
    7106.75069     4880.0000     3300.3750     6806.8750        0.5000
    7106.99980     4880.0000     3301.3750     6806.8750        0.5000
    7107.24891     4878.0000     3298.3750     6801.8750        0.5000
    7107.49804     4884.0000     3302.3750     6803.8750        0.5000
    7107.75179     4880.0000     3300.3750     6790.8750        0.5000
    7108.00093     4878.0000     3298.3750     6783.8750        0.5000
    7108.25009     4877.0000     3297.3750     6774.8750        0.5000
    7108.49926     4877.0000     3298.3750     6767.8750        0.5000
    7108.74843     4881.0000     3300.3750     6765.8750        0.5000
    7109.00223     4882.0000     3300.3750     6757.8750        0.5000
    7109.25143     4874.0000     3295.3750     6743.8750        0.5000
    7109.50064     4866.0000     3288.3750     6715.8750        0.5000
    7109.74985     4873.0000     3294.3750     6707.8750        0.5000
    7109.99908     4877.0000     3294.3750     6695.8750        0.5000
    7110.24832     4878.0000     3295.3750     6674.8750        0.5000
    7110.50218     4864.0000     3284.3750     6629.8750        0.5000
    7110.75144     4868.0000     3286.3750     6599.8750        0.5000
    7111.00071     4876.0000     3289.3750     6570.8750        0.5000
    7111.24998     4863.0000     3278.3750     6490.8750        0.5000
    7111.49927     4861.0000     3274.3750     6410.8750        0.5000
    7111.74857     4870.0000     3276.3750     6304.8750        0.5000
    7111.99788     4865.0000     3264.3750     6109.8750        0.5000
    7112.25181     4863.0000     3256.3750     5913.8750        0.5000
    7112.50114     4859.0000     3241.3750     5706.8750        0.5000
    7112.75048     4871.0000     3238.3750     5556.8750        0.5000
    7112.99983     4864.0000     3226.3750     5448.8750        0.5000
    7113.24919     4873.0000     3224.3750     5355.8750        0.5000
    7113.49856     4862.0000     3213.3750     5264.8750        0.5000
    7113.74794     4860.0000     3211.3750     5187.8750        0.5000
    7114.00194     4854.0000     3207.3750     5125.8750        0.5000
    7114.25134     4857.0000     3209.3750     5072.8750        0.5000
    7114.50075     4853.0000     3207.3750     5015.8750        0.5000
    7114.75017     4862.0000     3214.3750     4969.8750        0.5000
    7114.99960     4850.0000     3206.3750     4912.8750        0.5000
    7115.24904     4862.0000     3216.3750     4889.8750        0.5000
    7115.49849     4868.0000     3221.3750     4869.8750        0.5000
    7115.74795     4851.0000     3210.3750     4826.8750        0.5000
    7116.00204     4853.0000     3210.3750     4806.8750        0.5000
    7116.25152     4855.0000     3208.3750     4787.8750        0.5000
    7116.50101     4844.0000     3192.3750     4756.8750        0.5000
    7116.75052     4857.0000     3192.3750     4749.8750        0.5000
    7117.00003     4850.0000     3172.3750     4713.8750        0.5000
    7117.24955     4848.0000     3147.3750     4660.8750        0.5000
    7117.49908     4867.0000     3133.3750     4624.8750        0.5000
    7117.74862     4844.0000     3077.3750     4517.8750        0.5000
    7117.99817     4846.0000     3025.3750     4395.8750        0.5000
    7118.24773     4850.0000     2976.3750     4279.8750        0.5000
    7118.50193     4848.0000     2931.3750     4154.8750        0.5000
    7118.75151     4838.0000     2899.3750     4048.8750        0.5000
    7119.00110     4841.0000     2877.3750     3946.8750        0.5000
    7119.25070     4830.0000     2844.3750     3828.8750        0.5000
    7119.50031     4840.0000     2817.3750     3708.8750        0.5000
    7119.74994     4840.0000     2791.3750     3610.8750        0.5000
    7119.99957     4846.0000     2768.3750     3512.8750        0.5000
    7120.24921     4839.0000     2747.3750     3428.8750        0.5000
    7120.49886     4856.0000     2738.3750     3345.8750        0.5000
    7120.74853     4848.0000     2722.3750     3262.8750        0.5000
    7120.99820     4830.0000     2708.3750     3181.8750        0.5000
    7121.24788     4836.0000     2709.3750     3131.8750        0.5000
    7121.50220     4845.0000     2713.3750     3068.8750        0.5000
    7121.75190     4837.0000     2708.3750     3010.8750        0.5000
    7122.00161     4837.0000     2706.3750     2956.8750        0.5000
    7122.25134     4835.0000     2702.3750     2918.8750        0.5000
    7122.50107     4810.0000     2683.3750     2856.8750        0.5000
    7122.75082     4827.0000     2683.3750     2817.8750        0.5000
    7123.00057     4827.0000     2674.3750     2773.8750        0.5000
    7123.25033     4834.0000     2666.3750     2735.8750        0.5000
    7123.50011     4815.0000     2646.3750     2685.8750        0.5000
    7123.74989     4815.0000     2635.3750     2641.8750        0.5000
    7123.99968     4823.0000     2626.3750     2611.8750        0.5000
    7124.24949     4810.0000     2608.3750     2562.8750        0.5000
    7124.49930     4814.0000     2598.3750     2530.8750        0.5000
    7124.74913     4816.0000     2586.3750     2500.8750        0.5000
    7124.99896     4811.0000     2572.3750     2463.8750        0.5000
    7125.24881     4813.0000     2563.3750     2434.8750        0.5000
    7125.49866     4815.0000     2552.3750     2406.8750        0.5000
    7125.74852     4812.0000     2546.3750     2384.8750        0.5000
    7125.99840     4811.0000     2540.3750     2367.8750        0.5000
    7126.24828     4801.0000     2528.3750     2341.8750        0.5000
    7126.49818     4738.0000     2486.3750     2308.8750        0.5000
    7126.74808     4711.0000     2464.3750     2229.8750        0.5000
    7126.99800     4775.0000     2489.3750     2247.8750        0.5000
    7127.24792     4787.0000     2488.3750     2236.8750        0.5000
    7127.49786     4795.0000     2483.3750     2213.8750        0.5000
    7127.74780     4772.0000     2461.3750     2176.8750        0.5000
    7127.99776     4792.0000     2464.3750     2161.8750        0.5000
    7128.24772     4788.0000     2455.3750     2134.8750        0.5000
    7128.49770     4784.0000     2445.3750     2106.8750        0.5000
    7128.74769     4773.0000     2430.3750     2076.8750        0.5000
    7129.00231     4771.0000     2417.3750     2035.8750        0.5000
    7129.24769     4777.0000     2411.3750     2014.8750        0.5000
    7129.49770     4781.0000     2403.3750     1986.8750        0.5000
    7129.74773     4782.0000     2391.3750     1950.8750        0.5000
    7129.99776     4764.0000     2368.3750     1908.8750        0.5000
    7130.24781     4777.0000     2362.3750     1882.8750        0.5000
    7130.49787     4767.0000     2343.3750     1849.8750        0.5000
    7130.74793     4709.0000     2306.3750     1818.8750        0.5000
    7130.99801     4676.0000     2280.3750     1755.8750        0.5000
    7131.24810     4740.0000     2303.3750     1767.8750        0.5000
    7131.49819     4757.0000     2304.3750     1763.8750        0.5000
    7131.74830     4755.0000     2299.3750     1757.8750        0.5000
    7131.99842     4755.0000     2293.3750     1754.8750        0.5000
    7132.24854     4761.0000     2293.3750     1758.8750        0.5000
    7132.49868     4750.0000     2283.3750     1760.8750        0.5000
    7132.74883     4760.0000     2284.3750     1772.8750        0.5000
    7132.99898     4763.0000     2282.3750     1783.8750        0.5000
    7133.24915     4755.0000     2276.3750     1797.8750        0.5000
    7133.49933     4756.0000     2272.3750     1814.8750        0.5000
    7133.74951     4749.0000     2266.3750     1822.8750        0.5000
    7133.99971     4755.0000     2265.3750     1837.8750        0.5000
    7134.24992     4744.0000     2258.3750     1847.8750        0.5000
    7134.50013     4753.0000     2261.3750     1862.8750        0.5000
    7134.75036     4768.0000     2265.3750     1886.8750        0.5000
    7135.00060     4748.0000     2255.3750     1891.8750        0.5000
    7135.25085     4753.0000     2256.3750     1907.8750        0.5000
    7135.50110     4756.0000     2258.3750     1922.8750        0.5000
    7135.75137     4756.0000     2256.3750     1933.8750        0.5000
    7136.00165     4750.0000     2252.3750     1943.8750        0.5000
    7136.25194     4757.0000     2256.3750     1952.8750        0.5000
    7136.50223     4761.0000     2258.3750     1964.8750        0.5000
    7136.74791     4751.0000     2253.3750     1964.8750        0.5000
    7136.99822     4769.0000     2261.3750     1975.8750        0.5000
    7137.24855     4760.0000     2257.3750     1975.8750        0.5000
    7137.49889     4744.0000     2251.3750     1969.8750        0.5000
    7137.74924     4748.0000     2251.3750     1973.8750        0.5000
    7137.99960     4753.0000     2256.3750     1976.8750        0.5000
    7138.24996     4745.0000     2252.3750     1970.8750        0.5000
    7138.50034     4751.0000     2257.3750     1973.8750        0.5000
    7138.75073     4750.0000     2257.3750     1970.8750        0.5000
    7139.00113     4742.0000     2256.3750     1963.8750        0.5000
    7139.25154     4749.0000     2261.3750     1961.8750        0.5000
    7139.50195     4752.0000     2263.3750     1961.8750        0.5000
    7139.74774     4747.0000     2264.3750     1954.8750        0.5000
    7139.99818     4753.0000     2267.3750     1950.8750        0.5000
    7140.24863     4756.0000     2271.3750     1947.8750        0.5000
    7140.49909     4763.0000     2278.3750     1946.8750        0.5000
    7140.74956     4760.0000     2278.3750     1941.8750        0.5000
    7141.00004     4758.0000     2279.3750     1939.8750        0.5000
    7141.25052     4756.0000     2281.3750     1934.8750        0.5000
    7141.50102     4755.0000     2285.3750     1931.8750        0.5000
    7141.75153     4742.0000     2281.3750     1923.8750        0.5000
    7143.07847     4761.0000     2307.3750     1937.8750        0.5000
    7144.17827     4746.0000     2316.3750     1955.8750        0.5000
    7145.29220     4746.0000     2335.3750     1981.8750        0.5000
    7146.42953     4747.0000     2354.3750     1997.8750        0.5000
    7147.58565     4754.0000     2377.3750     1996.8750        0.5000
    7148.75592     4749.0000     2389.3750     1974.8750        0.5000
    7149.94962     4746.0000     2401.3750     1947.8750        0.5000
    7151.16214     4737.0000     2409.3750     1925.8750        0.5000
    7152.39348     4693.0000     2401.3750     1913.8750        0.5000
    7153.64366     4733.0000     2435.3750     1922.8750        0.5000
    7154.91268     4753.0000     2456.3750     1933.8750        0.5000
    7156.20055     4744.0000     2459.3750     1942.8750        0.5000
    7157.50730     4673.0000     2430.3750     1914.8750        0.5000
    7158.83292     4747.0000     2479.3750     1976.8750        0.5000
    7160.18208     4738.0000     2486.3750     1984.8750        0.5000
    7161.54549     4762.0000     2510.3750     2007.8750        0.5000
    7162.92782     4762.0000     2519.3750     2018.8750        0.5000
    7164.32907     4756.0000     2518.3750     2028.8750        0.5000
    7165.75392     4767.0000     2520.3750     2042.8750        0.5000
    7167.19306     4776.0000     2517.3750     2050.8750        0.5000
    7168.65117     4785.0000     2510.3750     2053.8750        0.5000
    7170.13291     4785.0000     2501.3750     2049.8750        0.5000
    7171.62898     4788.0000     2493.3750     2052.8750        0.5000
    7173.52171     4821.0000     2502.3005     2079.7025        0.5020
    7175.06056     4897.0000     2535.0397     2128.0988        0.5090
    7176.62310     4954.0000     2556.8162     2176.5813        0.5150
    7178.20002     5018.0000     2579.5927     2229.0637        0.5210
    7179.79600     5065.0000     2595.3693     2277.5462        0.5270
    7181.41573     5153.0000     2631.1085     2337.9425        0.5340
    7183.04987     5223.0000     2660.8850     2378.4250        0.5400
    7184.70312     5292.0000     2693.6615     2405.9075        0.5460
    7186.38015     5351.0000     2722.4380     2424.3900        0.5520
    7188.07164     5415.0000     2753.1773     2429.7863        0.5590
    7189.78228     5495.0000     2791.9538     2429.2688        0.5650
    7191.51676     5568.0000     2827.7303     2425.7512        0.5710
    7193.26573     5626.0000     2854.5068     2407.2337        0.5770
    7195.03389     5705.0000     2892.2460     2403.6300        0.5840
    7196.82126     5768.0000     2920.0225     2415.1125        0.5900
    7198.62785     5823.0000     2942.7990     2451.5950        0.5960
    7200.45368     5875.0000     2963.5755     2510.0775        0.6020
    7202.30344     5956.0000     3005.3148     2594.4738        0.6090
    7204.16778     6017.0000     3047.0912     2688.9563        0.6150
    7206.05141     6061.0000     3089.8677     2793.4387        0.6210
    7207.94966     6130.0000     3150.6442     2894.9212        0.6270
    7209.87190     6200.0000     3207.3835     2958.3175        0.6340
    7211.81348     6269.0000     3264.1600     2955.8000        0.6400
    7213.77441     6306.0000     3304.9365     2879.2825        0.6460
    7215.75000     6381.0000     3362.7130     2795.7650        0.6520
    7217.74968     6453.0000     3419.4522     2715.1613        0.6590
    7219.76875     6512.0000     3468.2288     2658.6438        0.6650
    7221.80255     6579.0000     3517.0053     2655.1262        0.6710
    7223.85577     6625.0000     3548.7818     2700.6087        0.6770
    7225.93315     6713.0000     3598.5210     2820.0050        0.6840
    7228.02529     6758.0000     3618.2975     2949.4875        0.6900
    7230.13692     6827.0000     3648.0740     3101.9700        0.6960
    7232.26805     6898.0000     3678.8505     3258.4525        0.7020
    7234.41870     6949.0000     3702.5898     3391.8488        0.7090
    7236.58888     7008.0000     3731.3663     3503.3313        0.7150
    7238.77392     7058.0000     3753.1427     3562.8137        0.7210
    7240.98324     7118.0000     3778.9192     3584.2962        0.7270
    7243.20744     7186.0000     3809.6585     3584.6925        0.7340
    7245.45596     7240.0000     3833.4350     3558.1750        0.7400
    7247.71940     7312.0000     3863.2115     3544.6575        0.7460
    7250.00248     7345.0000     3874.9880     3526.1400        0.7520
    7252.30524     7424.0000     3914.7272     3558.5363        0.7590
    7254.62768     7484.0000     3951.5037     3613.0188        0.7650
    7256.96510     7526.0000     3986.2802     3673.5012        0.7710
    7259.32696     7582.0000     4028.0568     3719.9837        0.7770
    7261.70385     7689.0000     4095.7960     3763.3800        0.7840
    7264.10049     7722.0000     4119.5725     3753.8625        0.7900
    7266.52165     7764.0000     4142.3490     3750.3450        0.7960
    7268.95315     7829.0000     4173.1255     3755.8275        0.8020
    7271.40919     7899.0000     4206.8647     3751.2238        0.8090
    7273.88508     7949.0000     4228.6412     3720.7063        0.8150
    7276.37610     8036.0000     4277.4177     3715.1887        0.8210
    7278.89173     8091.0000     4314.1942     3719.6712        0.8270
    7281.42253     8154.0000     4355.9335     3739.0675        0.8340
    7283.97324     8215.0000     4400.7100     3747.5500        0.8400
    7286.53916     8282.0000     4450.4865     3754.0325        0.8460
    7289.12978     8320.0000     4481.2630     3746.5150        0.8520
    7291.73563     8394.0000     4532.0022     3781.9113        0.8590
    7294.36149     8482.0000     4589.7788     3873.3938        0.8650
    7297.00737     8536.0000     4630.5553     4005.8762        0.8710
    7299.67329     8606.0000     4683.3318     4162.3588        0.8770
    7302.35453     8692.0000     4749.0710     4326.7550        0.8840
    7305.05585     8741.0000     4797.8475     4459.2375        0.8900
    7307.78204     8819.0000     4854.6240     4583.7200        0.8960
    7310.51884     8877.0000     4897.4005     4669.2025        0.9020
    7313.28055     8956.0000     4949.1398     4732.5988        0.9090
    7316.05767     9016.0000     4988.9163     4772.0813        0.9150
    7318.85498     9086.0000     5033.6928     4825.5638        0.9210
    7321.67251     9143.0000     5074.4693     4873.0463        0.9270
    7324.51027     9248.0000     5134.2085     4943.4425        0.9340
    7327.36352     9287.0000     5152.9850     4969.9250        0.9400
    7330.23705     9366.0000     5189.7615     5013.4075        0.9460
    7333.13088     9448.0000     5231.5380     5074.8900        0.9520
    7336.04504     9502.0000     5255.2773     5134.2863        0.9590
    7338.97477     9580.0000     5298.0538     5200.7688        0.9650
    7341.92487     9620.0000     5325.8302     5223.2513        0.9710
    7344.89536     9684.0000     5373.6067     5229.7338        0.9770
    7347.88147     9777.0000     5439.3460     5221.1300        0.9840
    7350.88803     9830.0000     5481.1225     5181.6125        0.9900
    7353.91504     9873.0000     5517.8990     5145.0950        0.9960
    7356.96253     9916.0000     5551.6755     5115.5775        1.0020
    7360.02574     9963.0000     5583.4147     5089.9738        1.0090
    7363.10948    10047.0000     5634.1912     5094.4563        1.0150
    7366.21377    10095.0000     5665.9677     5104.9388        1.0210
    7369.33383    10132.0000     5690.7442     5149.4213        1.0270
    7372.47449    10214.0000     5753.4835     5257.8175        1.0340
    7375.63577    10284.0000     5807.2600     5404.3000        1.0400
    7378.81289    10329.0000     5847.0365     5578.7825        1.0460
    7382.01068    10404.0000     5899.8130     5772.2650        1.0520
    7385.22916    10489.0000     5957.5522     5957.6613        1.0590
    7388.46354    10536.0000     5994.3287     6058.1438        1.0650
    7391.71866    10603.0000     6039.1052     6122.6263        1.0710
    7394.99454    10656.0000     6077.8817     6136.1088        1.0770
    7398.28639    10756.0000     6143.6210     6180.5050        1.0840
    7401.59905    10794.0000     6180.3975     6206.9875        1.0900
    7404.93254    10870.0000     6244.1740     6279.4700        1.0960
    7408.28207    10953.0000     6309.9505     6353.9525        1.1020
    7411.65248    11029.0000     6366.6897     6412.3488        1.1090
    7415.03896    11077.0000     6403.4663     6452.8313        1.1150
    7418.44638    11149.0000     6450.2428     6505.3138        1.1210
    7421.87475    11195.0000     6485.0193     6554.7963        1.1270
    7425.31926    11290.0000     6551.7585     6652.1925        1.1340
    7428.78478    11355.0000     6598.5350     6746.6750        1.1400
    7432.26648    11432.0000     6657.3115     6834.1575        1.1460
    7435.76924    11496.0000     6706.0880     6887.6400        1.1520
    7439.29307    11565.0000     6753.8273     6928.0363        1.1590
    7442.83316    11628.0000     6796.6038     6932.5188        1.1650
    7446.38952    11689.0000     6837.3803     6921.0013        1.1710
    7449.97189    11741.0000     6871.1568     6906.4838        1.1770
    7453.57058    11753.0000     6882.8960     6900.8800        1.1840
    7457.18562    11969.0000     7015.6725     7038.3625        1.1900
    7460.82188    11948.0000     7017.4490     7049.8450        1.1960
    7464.47453    11036.0000     6497.2255     6935.3275        1.2020
    7468.14845    12138.0000     7156.9648     7271.7238        1.2090
    7471.84368    12157.0000     7182.7413     7367.2063        1.2150
    7475.55537    12209.0000     7230.5177     7483.6888        1.2210
    7479.28841    12263.0000     7280.2942     7586.1713        1.2270
    7483.03795    12285.0000     7309.0335     7668.5675        1.2340
    7486.80890    10922.0000     6515.8100     6900.0500        1.2400
    7490.59640    12466.0000     7446.5865     7931.5325        1.2460
    7494.40535    12499.0000     7479.3630     8007.0150        1.2520
    7498.23090    12542.0000     7517.1022     8062.4113        1.2590
    7502.07307    12589.0000     7555.8787     8102.8938        1.2650
    7505.94166    12622.0000     7583.6552     8117.3763        1.2710
    7509.82202    12428.0000     7485.4317     8273.8587        1.2770
    7513.72396    12815.0000     7728.1710     8278.2550        1.2840
    7517.64752    12841.0000     7753.9475     8327.7375        1.2900
    7521.58780    11580.0000     6988.7240     7827.2200        1.2960
    7525.54975    13061.0000     7911.5005     8543.7025        1.3020
    7529.52848    13111.0000     7964.2397     8603.0987        1.3090
    7533.52402    13170.0000     8018.0162     8669.5812        1.3150
    7537.54129    13240.0000     8077.7927     8747.0637        1.3210
    7541.58034    13298.0000     8124.5692     8819.5462        1.3270
    7545.63625    13374.0000     8182.3085     8908.9425        1.3340
    7549.70907    13430.0000     8227.0850     8989.4250        1.3400
    7553.80373    13494.0000     8280.8615     9063.9075        1.3460
    7557.91534    13562.0000     8338.6380     9128.3900        1.3520
    7562.04392    13640.0000     8405.3772     9192.7862        1.3590
    7566.19441    13712.0000     8465.1537     9257.2687        1.3650
    7570.36686    13776.0000     8515.9302     9332.7512        1.3710
    7574.55141    13840.0000     8566.7067     9437.2337        1.3770
    7578.76290    13907.0000     8619.4460     9557.6300        1.3840
    7582.98655    13965.0000     8668.2225     9679.1125        1.3900
    7587.23224    14032.0000     8717.9990     9796.5950        1.3960
    7591.50002    14090.0000     8766.7755     9891.0775        1.4020
    7595.78001    14152.0000     8822.5148     9965.4737        1.4090
    7600.08213    14208.0000     8876.2913    10037.9562        1.4150
    7604.40642    14265.0000     8931.0678    10115.4387        1.4210
    7608.74793    14318.0000     8984.8443    10201.9212        1.4270
    7613.10670    14382.0000     9043.5835    10303.3175        1.4340
    7617.48772    14434.0000     9097.3600    10397.8000        1.4400
    7621.88604    14476.0000     9141.1365    10467.2825        1.4460
    7626.30168    14526.0000     9190.9130    10528.7650        1.4520
    7630.73965    14588.0000     9248.6522    10607.1612        1.4590
    7635.19499    14633.0000     9293.4287    10691.6437        1.4650
    7639.66773    14671.0000     9335.2053    10778.1262        1.4710
    7644.15790    14731.0000     9390.9818    10884.6087        1.4770
    7648.67049    14799.0000     9447.7210    10985.0050        1.4840
    7653.20553    14858.0000     9498.4975    11075.4875        1.4900
    7657.75309    14924.0000     9556.2740    11168.9700        1.4960
    7662.32315    14993.0000     9613.0505    11263.4525        1.5020
    7666.91076    15073.0000     9678.7897    11363.8487        1.5090
    7671.52093    15133.0000     9738.5662    11452.3312        1.5150
    7676.14869    15199.0000     9803.3427    11542.8137        1.5210
    7680.79407    15286.0000     9878.1192    11652.2962        1.5270
    7685.45710    15374.0000     9954.8585    11771.6925        1.5340
    7690.14279    15455.0000    10023.6350    11891.1750        1.5400
    7694.84617    15540.0000    10096.4115    12025.6575        1.5460
    7699.56726    15587.0000    10148.1880    12131.1400        1.5520
    7704.30609    15650.0000    10210.9273    12237.5362        1.5590
    7709.06770    15689.0000    10255.7038    12333.0187        1.5650
    7713.84709    15738.0000    10308.4803    12435.5012        1.5710
    7718.64429    15788.0000    10359.2568    12535.9837        1.5770
    7723.45932    15847.0000    10415.9960    12636.3800        1.5840
    7728.29724    15882.0000    10457.7725    12706.8625        1.5900
    7733.15304    15927.0000    10505.5490    12778.3450        1.5960
    7738.02675    15968.0000    10551.3255    12843.8275        1.6020
    7742.91839    16020.0000    10599.0647    12928.2237        1.6090
    7747.83302    16068.0000    10646.8412    13010.7062        1.6150
    7752.76563    16114.0000    10697.6177    13101.1887        1.6210
    7757.71624    16170.0000    10755.3942    13198.6712        1.6270
    7762.68488    16235.0000    10818.1335    13318.0675        1.6340
    7767.67157    16277.0000    10868.9100    13412.5500        1.6400
    7772.68139    16327.0000    10919.6865    13523.0325        1.6460
    7777.70425    16391.0000    10986.4630    13642.5150        1.6520
    7782.75029    16449.0000    11046.2023    13758.9112        1.6590
    7787.81954    16508.0000    11106.9788    13873.3937        1.6650
    7792.90190    16564.0000    11168.7553    13989.8762        1.6710
    7798.00245    16613.0000    11227.5318    14103.3587        1.6770
    7803.12629    16689.0000    11299.2710    14217.7550        1.6840
    7808.26838    16734.0000    11352.0475    14332.2375        1.6900
    7813.42874    16800.0000    11420.8240    14446.7200        1.6960
    7818.60738    16855.0000    11479.6005    14562.2025        1.7020
    7823.80435    16936.0000    11553.3397    14696.5987        1.7090
    7829.01964    17000.0000    11616.1162    14804.0812        1.7150
    7834.25840    17055.0000    11673.8928    14911.5637        1.7210
    7839.51554    17111.0000    11733.6693    15026.0462        1.7270
    7844.78599    17164.0000    11796.4085    15134.4425        1.7340
    7850.07998    17223.0000    11859.1850    15247.9250        1.7400
    7855.39243    17257.0000    11906.9615    15326.4075        1.7460
    7860.72336    17263.0000    11933.7380    15335.8900        1.7520
    7866.07279    17352.0000    12017.4772    15530.2862        1.7590
    7871.44587    17389.0000    12061.2537    15619.7687        1.7650
    7876.83239    17425.0000    12112.0302    15725.2512        1.7710
    7882.24260    17488.0000    12177.8067    15852.7337        1.7770
    7887.66629    17556.0000    12245.5460    15974.1300        1.7840
    7893.11374    17616.0000    12313.3225    16108.6125        1.7900
    7898.57983    17678.0000    12377.0990    16236.0950        1.7960
    7904.06460    17711.0000    12423.8755    16338.5775        1.8020
    7909.56807    17778.0000    12493.6148    16468.9738        1.8090
    7915.08511    17836.0000    12554.3913    16590.4562        1.8150
    7920.62604    17885.0000    12611.1678    16708.9388        1.8210
    7926.19088    17934.0000    12670.9443    16829.4212        1.8270
    7931.76937    17989.0000    12737.6835    16955.8175        1.8340
    7937.36667    18034.0000    12794.4600    17070.3000        1.8400
    7942.98282    18072.0000    12848.2365    17177.7825        1.8460
    7948.61782    18129.0000    12913.0130    17304.2650        1.8520
    7954.27686    18220.0000    13002.7522    17479.6613        1.8590
    7959.94966    18297.0000    13084.5287    17636.1437        1.8650
    7965.64138    18358.0000    13154.3052    17780.6263        1.8710
    7971.35723    18418.0000    13223.0817    17896.1087        1.8770
